Time,Amplitude,Frequency
0,100.0,80.0
1000000000,100.0,80.0
1000007500,99.75031224,79.97503122
1000015000,99.50124792,79.95012479
1000022500,99.25280548,79.92528055
1000030000,99.00498337,79.90049834
1000037500,98.75778005,79.875778
1000045000,98.51119396,79.8511194
1000052500,98.26522357,79.82652236
1000060000,98.01986733,79.80198673
1000067500,97.77512372,79.77751237
1000075000,97.5309912,79.75309912
1000082500,97.28746826,79.72874683
1000090000,97.04455335,79.70445534
1000097500,96.80224498,79.6802245
1000105000,96.56054163,79.65605416
1000112500,96.31944177,79.63194418
1000120000,96.07894392,79.60789439
1000127500,95.83904655,79.58390466
1000135000,95.59974818,79.55997482
1000142500,95.36104731,79.53610473
1000150000,95.12294245,79.51229425
1000157500,94.88543211,79.48854321
1000165000,94.6485148,79.46485148
1000172500,94.41218904,79.4412189
1000180000,94.17645336,79.41764534
1000187500,93.94130628,79.39413063
1000195000,93.70674634,79.37067463
1000202500,93.47277206,79.34727721
1000210000,93.23938199,79.3239382
1000217500,93.00657467,79.30065747
1000225000,92.77434863,79.27743486
1000232500,92.54270244,79.25427024
1000240000,92.31163464,79.23116346
1000247500,92.08114379,79.20811438
1000255000,91.85122844,79.18512284
1000262500,91.62188717,79.16218872
1000270000,91.39311853,79.13931185
1000277500,91.1649211,79.11649211
1000285000,90.93729345,79.09372934
1000292500,90.71023416,79.07102342
1000300000,90.4837418,79.04837418
1000307500,90.25781498,79.0257815
1000315000,90.03245226,79.00324523
1000322500,89.80765225,78.98076522
1000330000,89.58341353,78.95834135
1000337500,89.35973471,78.93597347
1000345000,89.13661439,78.91366144
1000352500,88.91405117,78.89140512
1000360000,88.69204367,78.86920437
1000367500,88.47059049,78.84705905
1000375000,88.24969026,78.82496903
1000382500,88.02934158,78.80293416
1000390000,87.80954309,78.78095431
1000397500,87.59029341,78.75902934
1000405000,87.37159117,78.73715912
1000412500,87.153435,78.7153435
1000420000,86.93582354,78.69358235
1000427500,86.71875543,78.67187554
1000435000,86.50222931,78.65022293
1000442500,86.28624383,78.62862438
1000450000,86.07079764,78.60707976
1000457500,85.8558894,78.58558894
1000465000,85.64151775,78.56415177
1000472500,85.42768136,78.54276814
1000480000,85.2143789,78.52143789
1000487500,85.00160902,78.5001609
1000495000,84.78937041,78.47893704
1000502500,84.57766173,78.45776617
1000510000,84.36648166,78.43664817
1000517500,84.15582888,78.41558289
1000525000,83.94570208,78.39457021
1000532500,83.73609993,78.37360999
1000540000,83.52702114,78.35270211
1000547500,83.31846439,78.33184644
1000555000,83.11042839,78.31104284
1000562500,82.90291182,78.29029118
1000570000,82.69591339,78.26959134
1000577500,82.48943182,78.24894318
1000585000,82.28346581,78.22834658
1000592500,82.07801406,78.20780141
1000600000,81.87307531,78.18730753
1000607500,81.66864826,78.16686483
1000615000,81.46473164,78.14647316
1000622500,81.26132418,78.12613242
1000630000,81.0584246,78.10584246
1000637500,80.85603163,78.08560316
1000645000,80.65414402,78.0654144
1000652500,80.45276049,78.04527605
1000660000,80.2518798,78.02518798
1000667500,80.05150068,78.00515007
1000675000,79.85162188,77.98516219
1000682500,79.65224215,77.96522421
1000690000,79.45336025,77.94533603
1000697500,79.25497493,77.92549749
1000705000,79.05708496,77.9057085
1000712500,78.8596891,77.88596891
1000720000,78.66278611,77.86627861
1000727500,78.46637476,77.84663748
1000735000,78.27045382,77.82704538
1000742500,78.07502208,77.80750221
1000750000,77.88007831,77.78800783
1000757500,77.68562128,77.76856213
1000765000,77.4916498,77.74916498
1000772500,77.29816263,77.72981626
1000780000,77.10515858,77.71051586
1000787500,76.91263644,77.69126364
1000795000,76.720595,77.6720595
1000802500,76.52903306,77.65290331
1000810000,76.33794943,77.63379494
1000817500,76.14734292,77.61473429
1000825000,75.95721232,77.59572123
1000832500,75.76755646,77.57675565
1000840000,75.57837415,77.55783741
1000847500,75.3896642,77.53896642
1000855000,75.20142543,77.52014254
1000862500,75.01365668,77.50136567
1000870000,74.82635676,77.48263568
1000877500,74.6395245,77.46395245
1000885000,74.45315875,77.44531587
1000892500,74.26725832,77.42672583
1000900000,74.08182207,77.40818221
1000907500,73.89684883,77.38968488
1000915000,73.71233744,77.37123374
1000922500,73.52828675,77.35282868
1000930000,73.34469562,77.33446956
1000937500,73.16156289,77.31615629
1000945000,72.97888743,77.29788874
1000952500,72.79666808,77.27966681
1000960000,72.61490371,77.26149037
1000967500,72.43359318,77.24335932
1000975000,72.25273536,77.22527354
1000982500,72.07232913,77.20723291
1000990000,71.89237334,77.18923733
1000997500,71.71286689,77.17128669
1001005000,71.53380864,77.15338086
1001012500,71.35519747,77.13551975
1001020000,71.17703228,77.11770323
1001027500,70.99931194,77.09993119
1001035000,70.82203535,77.08220353
1001042500,70.64520139,77.06452014
1001050000,70.46880897,77.0468809
1001057500,70.29285698,77.0292857
1001065000,70.11734432,77.01173443
1001072500,69.94226989,76.99422699
1001080000,69.76763261,76.97676326
1001087500,69.59343137,76.95934314
1001095000,69.41966509,76.94196651
1001102500,69.24633268,76.92463327
1001110000,69.07343306,76.90734331
1001117500,68.90096516,76.89009652
1001125000,68.72892788,76.87289279
1001132500,68.55732016,76.85573202
1001140000,68.38614092,76.83861409
1001147500,68.2153891,76.82153891
1001155000,68.04506362,76.80450636
1001162500,67.87516343,76.78751634
1001170000,67.70568745,76.77056874
1001177500,67.53663464,76.75366346
1001185000,67.36800392,76.73680039
1001192500,67.19979426,76.71997943
1001200000,67.0320046,76.70320046
1001207500,66.86463389,76.68646339
1001215000,66.69768109,76.66976811
1001222500,66.53114514,76.65311451
1001230000,66.36502501,76.6365025
1001237500,66.19931967,76.61993197
1001245000,66.03402807,76.60340281
1001252500,65.86914918,76.58691492
1001260000,65.70468198,76.5704682
1001267500,65.54062543,76.55406254
1001275000,65.37697851,76.53769785
1001282500,65.2137402,76.52137402
1001290000,65.05090947,76.50509095
1001297500,64.88848531,76.48884853
1001305000,64.72646671,76.47264667
1001312500,64.56485264,76.45648526
1001320000,64.40364211,76.44036421
1001327500,64.2428341,76.42428341
1001335000,64.0824276,76.40824276
1001342500,63.92242163,76.39224216
1001350000,63.76281516,76.37628152
1001357500,63.60360722,76.36036072
1001365000,63.44479679,76.34447968
1001372500,63.2863829,76.32863829
1001380000,63.12836455,76.31283646
1001387500,62.97074075,76.29707408
1001395000,62.81351052,76.28135105
1001402500,62.65667287,76.26566729
1001410000,62.50022683,76.25002268
1001417500,62.34417141,76.23441714
1001425000,62.18850565,76.21885056
1001432500,62.03322856,76.20332286
1001440000,61.87833918,76.18783392
1001447500,61.72383654,76.17238365
1001455000,61.56971968,76.15697197
1001462500,61.41598762,76.14159876
1001470000,61.26263942,76.12626394
1001477500,61.10967411,76.11096741
1001485000,60.95709073,76.09570907
1001492500,60.80488834,76.08048883
1001500000,60.65306597,76.0653066
1001507500,60.50162269,76.05016227
1001515000,60.35055754,76.03505575
1001522500,60.19986959,76.01998696
1001530000,60.04955788,76.00495579
1001537500,59.89962149,75.98996215
1001545000,59.75005946,75.97500595
1001552500,59.60087088,75.96008709
1001560000,59.4520548,75.94520548
1001567500,59.30361029,75.93036103
1001575000,59.15553644,75.91555364
1001582500,59.0078323,75.90078323
1001590000,58.86049697,75.8860497
1001597500,58.71352951,75.87135295
1001605000,58.56692901,75.8566929
1001612500,58.42069456,75.84206946
1001620000,58.27482524,75.82748252
1001627500,58.12932013,75.81293201
1001635000,57.98417833,75.79841783
1001642500,57.83939894,75.78393989
1001650000,57.69498104,75.7694981
1001657500,57.55092373,75.75509237
1001665000,57.40722612,75.74072261
1001672500,57.2638873,75.72638873
1001680000,57.12090638,75.71209064
1001687500,56.97828247,75.69782825
1001695000,56.83601468,75.68360147
1001702500,56.6941021,75.66941021
1001710000,56.55254387,75.65525439
1001717500,56.41133909,75.64113391
1001725000,56.27048688,75.62704869
1001732500,56.12998636,75.61299864
1001740000,55.98983666,75.59898367
1001747500,55.85003689,75.58500369
1001755000,55.71058618,75.57105862
1001762500,55.57148367,75.55714837
1001770000,55.43272847,75.54327285
1001777500,55.29431974,75.52943197
1001785000,55.15625659,75.51562566
1001792500,55.01853817,75.50185382
1001800000,54.88116361,75.48811636
1001807500,54.74413206,75.47441321
1001815000,54.60744266,75.46074427
1001822500,54.47109456,75.44710946
1001830000,54.33508691,75.43350869
1001837500,54.19941885,75.41994188
1001845000,54.06408953,75.40640895
1001852500,53.92909812,75.39290981
1001860000,53.79444376,75.37944438
1001867500,53.66012562,75.36601256
1001875000,53.52614285,75.35261429
1001882500,53.39249462,75.33924946
1001890000,53.2591801,75.32591801
1001897500,53.12619845,75.31261984
1001905000,52.99354883,75.29935488
1001912500,52.86123043,75.28612304
1001920000,52.7292424,75.27292424
1001927500,52.59758394,75.25975839
1001935000,52.46625421,75.24662542
1001942500,52.3352524,75.23352524
1001950000,52.20457768,75.22045777
1001957500,52.07422924,75.20742292
1001965000,51.94420626,75.19442063
1001972500,51.81450793,75.18145079
1001980000,51.68513345,75.16851334
1001987500,51.556082,75.1556082
1001995000,51.42735277,75.14273528
1002002500,51.29894497,75.1298945
1002010000,51.17085778,75.11708578
1002017500,51.04309041,75.10430904
1002025000,50.91564206,75.09156421
1002032500,50.78851193,75.07885119
1002040000,50.66169924,75.06616992
1002047500,50.53520317,75.05352032
1002055000,50.40902296,75.0409023
1002062500,50.2831578,75.02831578
1002070000,50.15760691,75.01576069
1002077500,50.0323695,75.00323695
1002085000,49.9074448,74.99074448
1002092500,49.78283202,74.9782832
1002100000,49.65853038,74.96585304
1002107500,49.53453911,74.95345391
1002115000,49.41085743,74.94108574
1002122500,49.28748456,74.92874846
1002130000,49.16441975,74.91644197
1002137500,49.04166221,74.90416622
1002145000,48.91921118,74.89192112
1002152500,48.7970659,74.87970659
1002160000,48.6752256,74.86752256
1002167500,48.55368952,74.85536895
1002175000,48.4324569,74.84324569
1002182500,48.31152698,74.8311527
1002190000,48.19089901,74.8190899
1002197500,48.07057223,74.80705722
1002205000,47.9505459,74.79505459
1002212500,47.83081925,74.78308193
1002220000,47.71139155,74.77113916
1002227500,47.59226205,74.7592262
1002235000,47.47342999,74.747343
1002242500,47.35489465,74.73548946
1002250000,47.23665527,74.72366553
1002257500,47.11871113,74.71187111
1002265000,47.00106147,74.70010615
1002272500,46.88370558,74.68837056
1002280000,46.7666427,74.67666427
1002287500,46.64987212,74.66498721
1002295000,46.5333931,74.65333931
1002302500,46.41720491,74.64172049
1002310000,46.30130683,74.63013068
1002317500,46.18569814,74.61856981
1002325000,46.0703781,74.60703781
1002332500,45.955346,74.5955346
1002340000,45.84060113,74.58406011
1002347500,45.72614276,74.57261428
1002355000,45.61197018,74.56119702
1002362500,45.49808267,74.54980827
1002370000,45.38447953,74.53844795
1002377500,45.27116004,74.527116
1002385000,45.15812349,74.51581235
1002392500,45.04536919,74.50453692
1002400000,44.93289641,74.49328964
1002407500,44.82070447,74.48207045
1002415000,44.70879266,74.47087927
1002422500,44.59716027,74.45971603
1002430000,44.48580662,74.44858066
1002437500,44.37473101,74.4374731
1002445000,44.26393274,74.42639327
1002452500,44.15341111,74.41534111
1002460000,44.04316545,74.40431655
1002467500,43.93319506,74.39331951
1002475000,43.82349925,74.38234992
1002482500,43.71407733,74.37140773
1002490000,43.60492863,74.36049286
1002497500,43.49605246,74.34960525
1002505000,43.38744814,74.33874481
1002512500,43.279115,74.3279115
1002520000,43.17105234,74.31710523
1002527500,43.06325951,74.30632595
1002535000,42.95573582,74.29557358
1002542500,42.84848061,74.28484806
1002550000,42.74149319,74.27414932
1002557500,42.63477292,74.26347729
1002565000,42.52831911,74.25283191
1002572500,42.4221311,74.24221311
1002580000,42.31620823,74.23162082
1002587500,42.21054984,74.22105498
1002595000,42.10515526,74.21051553
1002602500,42.00002384,74.20000238
1002610000,41.89515492,74.18951549
1002617500,41.79054785,74.17905479
1002625000,41.68620197,74.1686202
1002632500,41.58211662,74.15821166
1002640000,41.47829117,74.14782912
1002647500,41.37472495,74.1374725
1002655000,41.27141733,74.12714173
1002662500,41.16836765,74.11683677
1002670000,41.06557528,74.10655753
1002677500,40.96303956,74.09630396
1002685000,40.86075986,74.08607599
1002692500,40.75873555,74.07587355
1002700000,40.65696597,74.0656966
1002707500,40.55545051,74.05554505
1002715000,40.45418851,74.04541885
1002722500,40.35317935,74.03531794
1002730000,40.2524224,74.02524224
1002737500,40.15191703,74.0151917
1002745000,40.05166261,74.00516626
1002752500,39.95165851,73.99516585
1002760000,39.85190411,73.98519041
1002767500,39.75239878,73.97523988
1002775000,39.65314191,73.96531419
1002782500,39.55413287,73.95541329
1002790000,39.45537104,73.9455371
1002797500,39.3568558,73.93568558
1002805000,39.25858655,73.92585866
1002812500,39.16056267,73.91605627
1002820000,39.06278354,73.90627835
1002827500,38.96524855,73.89652485
1002835000,38.86795709,73.88679571
1002842500,38.77090856,73.87709086
1002850000,38.67410235,73.86741023
1002857500,38.57753785,73.85775378
1002865000,38.48121446,73.84812145
1002872500,38.38513157,73.83851316
1002880000,38.2892886,73.82892886
1002887500,38.19368493,73.81936849
1002895000,38.09831997,73.809832
1002902500,38.00319313,73.80031931
1002910000,37.90830381,73.79083038
1002917500,37.81365142,73.78136514
1002925000,37.71923536,73.77192354
1002932500,37.62505504,73.7625055
1002940000,37.53110989,73.75311099
1002947500,37.4373993,73.74373993
1002955000,37.34392269,73.73439227
1002962500,37.25067949,73.72506795
1002970000,37.1576691,73.71576691
1002977500,37.06489095,73.7064891
1002985000,36.97234445,73.69723445
1002992500,36.88002904,73.6880029
1003000000,36.78794412,73.67879441
1003007500,36.69608912,73.66960891
1003015000,36.60446348,73.66044635
1003022500,36.51306662,73.65130666
1003030000,36.42189796,73.6421898
1003037500,36.33095694,73.63309569
1003045000,36.24024298,73.6240243
1003052500,36.14975553,73.61497555
1003060000,36.05949402,73.6059494
1003067500,35.96945787,73.59694579
1003075000,35.87964654,73.58796465
1003082500,35.79005945,73.57900595
1003090000,35.70069606,73.57006961
1003097500,35.61155579,73.56115558
1003105000,35.52263809,73.55226381
1003112500,35.43394241,73.54339424
1003120000,35.3454682,73.53454682
1003127500,35.25721489,73.52572149
1003135000,35.16918194,73.51691819
1003142500,35.0813688,73.50813688
1003150000,34.99377491,73.49937749
1003157500,34.90639974,73.49063997
1003165000,34.81924273,73.48192427
1003172500,34.73230334,73.47323033
1003180000,34.64558103,73.4645581
1003187500,34.55907526,73.45590753
1003195000,34.47278548,73.44727855
1003202500,34.38671115,73.43867112
1003210000,34.30085174,73.43008517
1003217500,34.21520671,73.42152067
1003225000,34.12977553,73.41297755
1003232500,34.04455766,73.40445577
1003240000,33.95955256,73.39595526
1003247500,33.87475972,73.38747597
1003255000,33.79017859,73.37901786
1003262500,33.70580865,73.37058086
1003270000,33.62164937,73.36216494
1003277500,33.53770023,73.35377002
1003285000,33.45396069,73.34539607
1003292500,33.37043025,73.33704302
1003300000,33.28710837,73.32871084
1003307500,33.20399453,73.32039945
1003315000,33.12108822,73.31210882
1003322500,33.03838892,73.30383889
1003330000,32.95589611,73.29558961
1003337500,32.87360927,73.28736093
1003345000,32.79152789,73.27915279
1003352500,32.70965146,73.27096515
1003360000,32.62797946,73.26279795
1003367500,32.54651139,73.25465114
1003375000,32.46524674,73.24652467
1003382500,32.38418499,73.2384185
1003390000,32.30332564,73.23033256
1003397500,32.22266819,73.22226682
1003405000,32.14221213,73.21422121
1003412500,32.06195696,73.2061957
1003420000,31.98190218,73.19819022
1003427500,31.90204729,73.19020473
1003435000,31.82239178,73.18223918
1003442500,31.74293516,73.17429352
1003450000,31.66367694,73.16636769
1003457500,31.58461661,73.15846166
1003465000,31.50575369,73.15057537
1003472500,31.42708768,73.14270877
1003480000,31.34861809,73.13486181
1003487500,31.27034443,73.12703444
1003495000,31.1922662,73.11922662
1003502500,31.11438293,73.11143829
1003510000,31.03669413,73.10366941
1003517500,30.9591993,73.09591993
1003525000,30.88189797,73.0881898
1003532500,30.80478965,73.08047896
1003540000,30.72787386,73.07278739
1003547500,30.65115012,73.06511501
1003555000,30.57461795,73.05746179
1003562500,30.49827687,73.04982769
1003570000,30.42212641,73.04221264
1003577500,30.34616608,73.03461661
1003585000,30.27039542,73.02703954
1003592500,30.19481395,73.01948139
1003600000,30.11942119,73.01194212
1003607500,30.04421668,73.00442167
1003615000,29.96919995,72.99692
1003622500,29.89437053,72.98943705
1003630000,29.81972794,72.98197279
1003637500,29.74527173,72.97452717
1003645000,29.67100143,72.96710014
1003652500,29.59691657,72.95969166
1003660000,29.52301669,72.95230167
1003667500,29.44930133,72.94493013
1003675000,29.37577003,72.937577
1003682500,29.30242233,72.93024223
1003690000,29.22925777,72.92292578
1003697500,29.15627589,72.91562759
1003705000,29.08347624,72.90834762
1003712500,29.01085836,72.90108584
1003720000,28.93842179,72.89384218
1003727500,28.8661661,72.88661661
1003735000,28.79409081,72.87940908
1003742500,28.72219549,72.87221955
1003750000,28.65047969,72.86504797
1003757500,28.57894294,72.85789429
1003765000,28.50758482,72.85075848
1003772500,28.43640487,72.84364049
1003780000,28.36540265,72.83654026
1003787500,28.29457771,72.82945777
1003795000,28.22392961,72.82239296
1003802500,28.15345792,72.81534579
1003810000,28.08316218,72.80831622
1003817500,28.01304196,72.8013042
1003825000,27.94309682,72.79430968
1003832500,27.87332633,72.78733263
1003840000,27.80373005,72.780373
1003847500,27.73430753,72.77343075
1003855000,27.66505836,72.76650584
1003862500,27.5959821,72.75959821
1003870000,27.52707831,72.75270783
1003877500,27.45834656,72.74583466
1003885000,27.38978643,72.73897864
1003892500,27.32139749,72.73213975
1003900000,27.2531793,72.72531793
1003907500,27.18513145,72.71851315
1003915000,27.1172535,72.71172535
1003922500,27.04954504,72.7049545
1003930000,26.98200564,72.69820056
1003937500,26.91463487,72.69146349
1003945000,26.84743232,72.68474323
1003952500,26.78039757,72.67803976
1003960000,26.7135302,72.67135302
1003967500,26.64682978,72.66468298
1003975000,26.58029591,72.65802959
1003982500,26.51392816,72.65139282
1003990000,26.44772613,72.64477261
1003997500,26.38168939,72.63816894
1004005000,26.31581755,72.63158175
1004012500,26.25011017,72.62501102
1004020000,26.18456686,72.61845669
1004027500,26.1191872,72.61191872
1004035000,26.05397079,72.60539708
1004042500,25.98891721,72.59889172
1004050000,25.92402606,72.59240261
1004057500,25.85929694,72.58592969
1004065000,25.79472945,72.57947294
1004072500,25.73032316,72.57303232
1004080000,25.6660777,72.56660777
1004087500,25.60199264,72.56019926
1004095000,25.5380676,72.55380676
1004102500,25.47430217,72.54743022
1004110000,25.41069596,72.5410696
1004117500,25.34724856,72.53472486
1004125000,25.28395958,72.52839596
1004132500,25.22082863,72.52208286
1004140000,25.15785531,72.51578553
1004147500,25.09503922,72.50950392
1004155000,25.03237998,72.503238
1004162500,24.96987719,72.49698772
1004170000,24.90753046,72.49075305
1004177500,24.84533941,72.48453394
1004185000,24.78330364,72.47833036
1004192500,24.72142276,72.47214228
1004200000,24.65969639,72.46596964
1004207500,24.59812415,72.45981242
1004215000,24.53670565,72.45367056
1004222500,24.47544049,72.44754405
1004230000,24.41432832,72.44143283
1004237500,24.35336873,72.43533687
1004245000,24.29256134,72.42925613
1004252500,24.23190579,72.42319058
1004260000,24.17140169,72.41714017
1004267500,24.11104866,72.41110487
1004275000,24.05084632,72.40508463
1004282500,23.9907943,72.39907943
1004290000,23.93089222,72.39308922
1004297500,23.87113972,72.38711397
